sma_5,sma_10,sma_20,sma_50,ema_12,ema_26,rsi_14,macd_line,macd_signal,macd_hist,bb_upper,bb_lower,bb_percent,vol_sma,vol_ratio,price_vol,momentum_1,momentum_5,momentum_10,hl_spread
131.606,128.914,126.7565,125.62359999999997,128.3725,126.97000000000001,24.648254299114054,0.1904826323384583,-0.6018005470640951,0.7922831794025534,133.22453610070306,120.28846389929694,0.4824908212884448,3078155.0,0.9975780946703463,3.2340180503514007,-1.1299999999999955,-5.730000000000004,-7.469999999999999,0.03520542781756492
131.606,128.914,126.7565,125.62359999999997,128.3725,126.97000000000001,24.648254299114054,0.1904826323384583,-0.6018005470640951,0.7922831794025534,133.22453610070306,120.28846389929694,0.4824908212884448,3078155.0,0.9975780946703463,3.2340180503514007,-1.1299999999999955,-5.730000000000004,-7.469999999999999,0.014218369829683731
131.606,128.914,126.7565,125.62359999999997,128.3725,126.97000000000001,24.648254299114054,0.1904826323384583,-0.6018005470640951,0.7922831794025534,133.22453610070306,120.28846389929694,0.4824908212884448,3078155.0,0.9975780946703463,3.2340180503514007,0.8599999999999852,-5.730000000000004,-7.469999999999999,0.018129626831847753
131.606,128.914,126.7565,125.62359999999997,128.3725,126.97000000000001,24.648254299114054,0.1904826323384583,-0.6018005470640951,0.7922831794025534,133.22453610070306,120.28846389929694,0.4824908212884448,3078155.0,0.9975780946703463,3.2340180503514007,-0.15000000000000568,-5.730000000000004,-7.469999999999999,0.02533464418059459
131.606,128.914,126.7565,125.62359999999997,128.3725,126.97000000000001,24.648254299114054,0.1904826323384583,-0.6018005470640951,0.7922831794025534,133.22453610070306,120.28846389929694,0.4824908212884448,3078155.0,0.9975780946703463,3.2340180503514007,-2.9799999999999898,-5.730000000000004,-7.469999999999999,0.029632495164410154
130.45999999999998,128.914,126.7565,125.62359999999997,128.3725,126.97000000000001,24.648254299114054,0.1904826323384583,-0.6018005470640951,0.7922831794025534,133.22453610070306,120.28846389929694,0.4824908212884448,3078155.0,0.9975780946703463,3.2340180503514007,-2.3299999999999983,-5.730000000000004,-7.469999999999999,0.016545855657106794
129.136,128.914,126.7565,125.62359999999997,128.3725,126.97000000000001,24.648254299114054,0.1904826323384583,-0.6018005470640951,0.7922831794025534,133.22453610070306,120.28846389929694,0.4824908212884448,3078155.0,0.9975780946703463,3.2340180503514007,-2.019999999999996,-6.6200000000000045,-7.469999999999999,0.016493194555644533
127.67999999999999,128.914,126.7565,125.62359999999997,128.3725,126.97000000000001,24.648254299114054,0.1904826323384583,-0.6018005470640951,0.7922831794025534,133.22453610070306,120.28846389929694,0.4824908212884448,3078155.0,0.9975780946703463,3.2340180503514007,0.19999999999998863,-7.280000000000001,-7.469999999999999,0.01598721023181455
126.64199999999998,128.914,126.7565,125.62359999999997,128.3725,126.97000000000001,24.648254299114054,0.1904826323384583,-0.6018005470640951,0.7922831794025534,133.22453610070306,120.28846389929694,0.4824908212884448,3078155.0,0.9975780946703463,3.2340180503514007,1.940000000000012,-5.1899999999999835,-7.469999999999999,0.02172544080604538
126.22199999999998,128.914,126.7565,125.62359999999997,128.3725,126.97000000000001,24.648254299114054,0.1904826323384583,-0.6018005470640951,0.7922831794025534,133.22453610070306,120.28846389929694,0.4824908212884448,3078155.0,0.9975780946703463,3.2340180503514007,0.10999999999999943,-2.0999999999999943,-7.469999999999999,0.017774282343688483
125.87399999999998,128.16699999999997,126.7565,125.62359999999997,128.3725,126.97000000000001,24.648254299114054,0.1904826323384583,-0.6018005470640951,0.7922831794025534,133.22453610070306,120.28846389929694,0.4824908212884448,3078155.0,0.9975780946703463,3.2340180503514007,-1.9699999999999989,-1.7399999999999949,-7.469999999999999,0.03283272088193002
126.12399999999998,127.63,126.7565,125.62359999999997,128.3725,126.97000000000001,24.648254299114054,0.1904826323384583,-0.6018005470640951,0.7922831794025534,133.22453610070306,120.28846389929694,0.4824908212884448,3078155.0,0.9975780946703463,3.2340180503514007,0.9699999999999989,1.25,-5.3700000000000045,0.013476020610384484
126.46399999999997,127.072,126.7565,125.62359999999997,128.13057692307692,126.97000000000001,24.648254299114054,0.1904826323384583,-0.6018005470640951,0.7922831794025534,133.22453610070306,120.28846389929694,0.4824908212884448,3078155.0,0.9975780946703463,3.2340180503514007,0.6499999999999915,1.7000000000000028,-5.579999999999998,0.016640378548895895
125.67799999999995,126.16,126.7565,125.62359999999997,127.35818047337277,126.97000000000001,24.648254299114054,0.1904826323384583,-0.6018005470640951,0.7922831794025534,133.22453610070306,120.28846389929694,0.4824908212884448,3078155.0,0.9975780946703463,3.2340180503514007,-3.6899999999999977,-3.930000000000007,-9.11999999999999,0.044025668101697564
124.83199999999995,125.527,126.7565,125.62359999999997,126.67538347746927,126.97000000000001,24.648254299114054,0.1904826323384583,-0.6018005470640951,0.7922831794025534,133.22453610070306,120.28846389929694,0.4824908212884448,3078155.0,0.9975780946703463,3.2340180503514007,-0.18999999999999773,-4.230000000000004,-6.329999999999998,0.04913765050439315
124.41999999999993,125.14699999999998,126.7565,125.62359999999997,126.12840140401246,126.97000000000001,25.484599833511655,0.1904826323384583,-0.6018005470640951,0.7922831794025534,133.22453610070306,120.28846389929694,0.4824908212884448,3078155.0,0.9975780946703463,3.2340180503514007,0.20000000000000284,-2.0600000000000023,-3.799999999999997,0.03793047433398312
123.64399999999993,124.88399999999997,126.7565,125.62359999999997,125.53480118801055,126.97000000000001,24.25256303484212,0.1904826323384583,-0.6018005470640951,0.7922831794025534,133.22453610070306,120.28846389929694,0.4824908212884448,3078155.0,0.9975780946703463,3.2340180503514007,-0.8500000000000085,-3.8800000000000097,-2.6300000000000097,0.017338676699108567
122.90799999999994,124.68599999999996,126.7565,125.62359999999997,125.163293312932,126.97000000000001,28.001055762103842,0.1904826323384583,-0.6018005470640951,0.7922831794025534,133.22453610070306,120.28846389929694,0.4824908212884448,3078155.0,0.9975780946703463,3.2340180503514007,0.8500000000000085,-3.6799999999999926,-1.9799999999999898,0.01989928525016235
123.64399999999993,124.66099999999997,126.7565,125.62359999999997,125.41355588017323,126.97000000000001,41.469130755928504,0.1904826323384583,-0.6018005470640951,0.7922831794025534,133.22453610070306,120.28846389929694,0.4824908212884448,3078155.0,0.9975780946703463,3.2340180503514007,3.6700000000000017,3.680000000000007,-0.25,0.02760470068617399
124.36599999999994,124.59899999999996,126.7565,125.62359999999997,125.58531651399274,126.97000000000001,40.885629157501704,0.1904826323384583,-0.6018005470640951,0.7922831794025534,133.22453610070306,120.28846389929694,0.4824908212884448,3078155.0,0.9975780946703463,3.2340180503514007,-0.2600000000000051,3.6099999999999994,-0.6200000000000045,0.014700071129376428
125.49599999999994,124.95799999999994,126.5625,125.62359999999997,126.07526781953231,126.97000000000001,47.71184184708638,0.1904826323384583,-0.6018005470640951,0.7922831794025534,132.52480785853825,120.60019214146175,0.6851212695130113,3048135.0,0.9618340395028435,2.981153929269129,2.240000000000009,5.650000000000006,3.5900000000000034,0.014754989516191702
126.31399999999994,124.97899999999993,126.3045,125.62359999999997,126.11907277037349,126.97000000000001,42.08153545039019,0.1904826323384583,-0.6018005470640951,0.7922831794025534,131.81591533546347,120.79308466453652,0.5050350043157594,3050665.0,0.975492228743569,2.7557076677317194,-2.410000000000011,4.090000000000003,0.20999999999999375,0.014245014245014223
126.99799999999993,124.95299999999993,126.0125,125.62359999999997,126.18383080570065,126.97000000000001,42.626113662597746,0.1904826323384583,-0.6018005470640951,0.7922831794025534,130.77310867956834,121.25189132043167,0.5554025793239358,3031275.0,0.6682666534708992,2.3803043397843546,0.18000000000000682,3.4200000000000017,-0.2599999999999909,0.009641220167535948
127.26399999999994,125.45399999999995,125.80699999999999,125.62359999999997,126.48170298943901,126.97000000000001,47.30934968744676,0.1904826323384583,-0.6018005470640951,0.7922831794025534,129.76317542583908,121.8508245741609,0.792327785175178,3025380.0,0.6735352253270663,1.9780877129195096,1.5799999999999983,1.3299999999999983,5.010000000000005,0.015220106150483833
127.56999999999994,125.96799999999993,125.74749999999999,125.62359999999997,126.7245179141407,126.97000000000001,47.15194768229546,0.1904826323384583,-0.6018005470640951,0.7922831794025534,129.52658917598006,121.96841082401993,0.8059599671130125,2981585.0,0.7847503928279758,1.8895445879899806,-0.060000000000002274,1.5300000000000011,5.140000000000001,0.008745900359206657
127.46399999999994,126.47999999999995,125.81349999999998,125.62359999999997,126.9576690042729,126.97000000000001,47.71397169839467,0.1904826323384583,-0.6018005470640951,0.7922831794025534,129.71627478212827,121.9107252178717,0.8108685660150742,2976445.0,0.6670037578386296,1.9513873910640873,0.18000000000000682,-0.5300000000000011,5.1200000000000045,0.015283842794759887
127.24199999999993,126.77799999999995,125.83099999999997,125.62359999999997,126.69495069592323,126.84259259259261,40.08758019673216,0.1904826323384583,-0.6018005470640951,0.7922831794025534,129.7203490457932,121.94165095420676,0.4253088379110123,2935980.0,0.9766074700781341,1.9446745228966995,-2.990000000000009,-1.1099999999999994,2.980000000000004,0.031217564870259455
126.92999999999992,126.96399999999994,125.82499999999997,125.62359999999997,126.43111212731965,126.70462277091909,39.47401309227576,0.1904826323384583,-0.6018005470640951,0.7922831794025534,129.71920852035672,121.93079147964325,0.3915055529791494,2958935.0,0.9019461394048872,1.9471042601783743,-0.269999999999996,-1.5600000000000023,1.8599999999999994,0.015442470795327193
126.34999999999994,126.80699999999995,125.73399999999997,125.62359999999997,126.2447871846551,126.59465071381398,40.348008863422905,0.1904826323384583,-0.6018005470640951,0.7922831794025534,129.5953075505635,121.87269244943646,0.4334422351406635,2956825.0,0.7495201778935175,1.930653775281581,0.23999999999999488,-2.9000000000000057,-1.5700000000000074,0.01181919821114841
126.11799999999994,126.84399999999997,125.72149999999996,125.62359999999997,126.34558915624662,126.61726917945738,46.20399695150369,0.1904826323384583,-0.6018005470640951,0.7922831794025534,129.56597278570578,121.87702721429415,0.6532719914654928,2945900.0,0.6774839607590211,1.9222363928528827,1.6800000000000068,-1.1599999999999966,0.37000000000000455,0.013947990543735193
126.48199999999993,126.97299999999996,125.96549999999998,125.62359999999997,126.91703697836252,126.87228627727535,55.12720203038085,0.1904826323384583,-0.6018005470640951,0.7922831794025534,130.23723255249132,121.69376744750865,0.9792551909192028,2942220.0,0.7715262624820713,2.135866276245634,3.1599999999999966,1.8199999999999932,1.289999999999992,0.017991696140242992
127.14399999999992,127.19299999999996,126.08599999999997,125.62359999999997,127.1698005201529,126.99730210858829,50.818178926796456,0.1904826323384583,-0.6018005470640951,0.7922831794025534,130.5051736784169,121.66682632158305,0.7799165839626255,2934435.0,0.7329519992775441,2.209586839208417,-1.5,3.3100000000000023,2.200000000000003,0.019523957685127494
127.89199999999991,127.41099999999997,126.18199999999995,125.62359999999997,127.40829274782169,127.12490935980397,51.25585093561947,0.1904826323384583,-0.6018005470640951,0.7922831794025534,130.7402742348436,121.62372576515627,0.7783948342334763,2860875.0,0.6033468781404291,2.279137117421889,0.1599999999999966,3.739999999999995,2.1799999999999926,0.016236793039154672
128.8439999999999,127.59699999999998,126.52549999999994,125.62359999999997,127.80394001738759,127.33639755537403,54.67645848827153,0.1904826323384583,-0.6018005470640951,0.7922831794025534,131.14106269592847,121.90993730407139,0.8742230609333212,2864305.0,1.1004414683492156,2.3077813479644083,1.259999999999991,4.759999999999991,1.8599999999999852,0.01107862748115093
129.22799999999992,127.67299999999997,126.82049999999995,125.62359999999997,127.9602569377895,127.44629403275374,51.11980103735411,0.2795276645414475,-0.4255349047429866,0.7050625692844341,131.22598964361936,122.41501035638055,0.7269327772562095,2671870.0,1.0555154255259425,2.2027448218095866,-1.1599999999999966,1.9199999999999875,0.7599999999999909,0.013274336283185903
127.94199999999994,127.21199999999999,126.84599999999996,125.62359999999997,127.29406356274495,127.16360558588309,38.9209453193396,-0.06791030355638839,-0.35400998450566695,0.28609968094927857,131.17067987254754,122.52132012745238,0.12818057118925102,2613325.0,1.4658337558474357,2.1623399362739026,-5.189999999999998,-6.430000000000007,-4.610000000000014,0.02992801100056623
126.78599999999994,126.96499999999999,126.87149999999997,125.62359999999997,126.59959224539958,126.83889406100286,37.34897313503925,-0.40715189903411897,-0.36463836741135736,-0.04251353162276161,131.0927286126213,122.65027138737865,0.015366214972752874,2559560.0,1.0675272312428699,2.1106143063106066,-0.8499999999999943,-5.780000000000001,-2.469999999999999,0.02337514253135682
125.35199999999993,126.62199999999999,126.79299999999998,125.62359999999997,125.82273189995348,126.44712413055821,35.13739682336852,-0.7664192242769587,-0.44499453878447764,-0.3214246854924811,131.33646167586028,122.24953832413968,-0.07698296739866568,2579465.0,1.2114527624914468,2.271730837930171,-1.230000000000004,-7.170000000000002,-3.430000000000007,0.022871246400658175
123.42599999999993,126.13499999999996,126.47099999999998,125.62359999999997,124.98077314611449,125.99548530607241,33.07941336036673,-1.1348888469113518,-0.5829734004098525,-0.5519154465014994,131.8124189126125,121.12958108738746,-0.072975093335843,2603310.0,1.2077316954185249,2.670709456306333,-1.2000000000000028,-9.629999999999995,-4.8700000000000045,0.021022019110926358
121.76199999999994,125.49499999999996,126.16949999999997,125.62359999999997,124.29142343132764,125.58841232043741,33.60291256090201,-1.3986768549934396,-0.7461140913265699,-0.6525627636668697,132.11062943807988,120.22837056192006,0.02286008417346718,2699740.0,1.8517709112729375,2.9705647190399675,0.15000000000000568,-8.319999999999993,-6.400000000000006,0.009045643153526881
120.82999999999996,124.38599999999997,125.67949999999996,125.62359999999997,123.47274290343108,125.09815955596056,30.94392368841326,-1.7114603159695037,-0.9391833362551567,-0.772276979714347,132.26362173338438,119.09537826661553,-0.00952125975889873,2749595.0,1.4289013472893282,3.292060866692203,-1.5300000000000011,-4.659999999999997,-11.090000000000003,0.023955619063629557
119.85399999999996,123.31999999999998,125.25649999999996,125.62359999999997,122.61539784136477,124.56496255181534,29.20351306059005,-2.022370887207515,-1.1558208464456283,-0.8665500407618867,132.64882378890525,117.86417621109467,0.002423039759101099,2771755.0,1.2335505843770462,3.696161894452704,-1.0699999999999932,-4.8799999999999955,-10.659999999999997,0.026887192536047513
119.18799999999995,122.26999999999998,124.84049999999995,125.62359999999997,121.9391827888471,124.09496532575494,30.46314103942373,-2.21738776339447,-1.3681342298353967,-0.8492535335590732,132.81089641423384,116.87010358576606,0.0846818868270613,2905930.0,1.6205483270416012,3.9851982071168828,0.3199999999999932,-3.3299999999999983,-10.5,0.017594315682625598
118.99199999999993,121.20899999999997,124.40299999999995,125.62359999999997,121.54392389825524,123.74496789421754,34.942930782065915,-2.2531714952971384,-1.5451416829277451,-0.7080298123693933,132.56362767193946,116.24237232806044,0.19162911222466245,3025460.0,1.4636782505800772,4.080313835969752,1.1500000000000057,-0.9799999999999898,-10.609999999999985,0.012984837061238142
119.22599999999993,120.49399999999999,124.08349999999996,125.62359999999997,121.56332022160059,123.59126656871994,42.870141283978285,-2.0720542311719186,-1.65052419257658,-0.42153003859533866,132.14617021525854,116.02082978474138,0.3503287412504845,3132700.0,1.4315446739234525,4.031335107629206,2.299999999999997,1.1700000000000017,-7.1499999999999915,0.012739377003369865
120.06999999999994,120.45,123.83099999999997,125.62359999999997,121.81357864904665,123.56154311918513,47.42915877021859,-1.7852865258752644,-1.6774766592363168,-0.10780986663894754,131.67038747607214,115.99161252392781,0.45911670382689496,3233945.0,1.240033457588178,3.9196937380360435,1.519999999999996,4.219999999999999,-0.4399999999999977,0.015504505235814568
121.36599999999994,120.60999999999999,123.78749999999998,125.62359999999997,122.20841270303947,123.62216955480105,50.7432318295806,-1.4453370527696165,-1.6310487379429768,0.18571168517336023,131.6045323652895,115.97046763471049,0.5378980137418214,3288870.0,1.205824492910939,3.9085161826448487,1.1899999999999977,6.47999999999999,1.5999999999999943,0.021144878597845276
122.76199999999994,120.975,123.79849999999996,125.62359999999997,122.66865690257185,123.73904588407504,52.94452985010746,-1.0971106900484386,-1.5242611283640692,0.4271504383156306,131.62282942813638,115.97417057186352,0.5895603906297854,3373335.0,1.291926239166878,3.9121647140682025,0.8200000000000074,6.980000000000004,3.6500000000000057,0.016453674121405654
124.09399999999994,121.543,123.83899999999998,125.62359999999997,123.18578660986849,123.90874618895838,55.13035052590944,-0.7455702555512573,-1.368522953801507,0.6229526982502496,131.70063825166073,115.97736174833925,0.6393475462660196,3732565.0,2.5185897633396874,3.9308191258304594,0.8299999999999983,6.659999999999997,5.680000000000007,0.017535507418868473
125.30599999999993,122.266,123.88049999999998,125.62359999999997,123.88489636219641,124.1918020268133,59.30047715365055,-0.3260377754688193,-1.1600259181349695,0.8339881426661502,131.81476108720761,115.94623891279235,0.7425871771604888,3791520.0,0.8373686542600329,3.967130543603753,1.7000000000000028,6.060000000000002,7.230000000000004,0.025131135989978924
126.24799999999993,123.15900000000002,123.7725,125.52859999999997,124.5026046141662,124.46648335816047,59.70379312160215,0.019932546823326902,-0.9240342251433101,0.943966771966637,131.4210210988764,116.12397890112358,0.769823404200739,3783535.0,0.557758815499262,3.824260549438272,0.1700000000000017,4.710000000000008,8.930000000000007,0.01985926505082089
126.28399999999992,123.825,123.57249999999999,125.38939999999997,124.51143467352524,124.47341051681525,49.35539831986654,0.0243260181710383,-0.7343621764804404,0.7586881946514787,130.91279120675483,116.23220879324515,0.5672657236739649,3827580.0,0.7920670501988202,3.6701456033774487,-3.3400000000000034,0.18000000000000682,6.659999999999997,0.02825947334617863
125.31799999999994,124.04,123.155,125.14919999999996,123.87429087759828,124.16945418223634,39.9909005776778,-0.30675403724794137,-0.6488405486339406,0.3420865113859992,130.22143474461905,116.08856525538094,0.3029416459183529,3986640.0,1.2309363273332932,3.5332173723094624,-4.189999999999998,-4.829999999999998,2.1500000000000057,0.02575392539669348
124.59999999999995,124.34700000000002,122.77799999999999,124.95339999999996,123.65363074258316,124.04134646503364,45.4931689293878,-0.39752326542807737,-0.598577091992768,0.20105382656469062,129.11456878759824,116.44143121240174,0.4733294144410207,3992690.0,0.8197480896338057,3.1682843937991048,2.069999999999993,-3.5900000000000034,3.069999999999993,0.015517804639006792
123.63999999999996,124.47300000000003,122.48349999999998,124.82699999999997,123.5423029360319,123.95902450466077,46.73811799749591,-0.42502025884067507,-0.5638657253623494,0.1388454665216743,128.18513581790125,116.78186418209872,0.5391554296223338,4030010.0,0.885010210892777,2.8508179089505896,0.4900000000000091,-4.799999999999997,1.2600000000000051,0.017652322459936563
123.45199999999997,124.85000000000002,122.64999999999998,124.82779999999997,124.06810248433469,124.18131898579702,55.69997949090859,-0.12023847010308941,-0.4751402743104974,0.35490180420740797,128.66187824227856,116.6381217577214,0.8584570267649388,4015470.0,0.8815655452537312,3.0059391211391673,4.029999999999987,-0.9400000000000119,3.769999999999996,0.052772526780088244
124.20599999999997,125.24500000000003,122.92749999999997,124.89639999999997,124.72377902520627,124.4886286905528,58.270522477948546,0.22920866888053126,-0.3342704856722917,0.5634791545528229,129.43009602005202,116.42490397994791,0.9154110130277476,4010685.0,0.6574188698439294,3.251298010026098,1.3700000000000188,3.7700000000000102,3.950000000000017,0.021974596742772485
126.28999999999996,125.80400000000002,123.38949999999996,125.01019999999997,125.65704379055914,124.95539693569704,62.48047761853335,0.6966192915157734,-0.12809253023467862,0.824711821750452,130.69800593486823,116.08099406513169,1.0062936300491228,3984755.0,0.6540678159635912,3.654252967434042,2.4599999999999795,10.419999999999987,5.589999999999989,0.026531080357825514
128.426,126.513,124.02799999999995,125.13179999999997,126.80519089970389,125.56018234786762,65.98120977294126,1.2407544597739815,0.14567686776705344,1.095077592006928,132.3269363173853,115.7290636826146,1.047781043996766,3963555.0,0.6862778490521766,4.149468158692591,2.3300000000000125,10.680000000000007,7.090000000000003,0.016751802884615308
130.68799999999996,127.16400000000002,124.71499999999996,125.27359999999997,127.94900768436483,126.20313180358113,67.54861607940641,1.7422762644233103,0.4649967470983048,1.2772795173250056,133.95362002682236,115.47637997317757,1.0154990665459884,3857975.0,0.7485014806990714,4.619310013411258,1.1200000000000045,11.310000000000002,6.510000000000005,0.017729439809296747
131.36999999999995,127.41100000000002,125.28499999999997,125.37739999999997,128.3214680406164,126.51178870701956,57.66234235745922,1.8066335043688042,0.7333240985524047,1.0733094058163997,134.44181713260596,116.12818286739397,0.7776619826715304,3789850.0,0.6771771969866881,4.5784085663030645,-3.8700000000000045,3.410000000000011,2.469999999999999,0.025005752857252365
131.89599999999996,128.05100000000002,125.93799999999996,125.47359999999998,128.72739603436773,126.84128583983293,58.65581595574392,1.8835329544187545,0.9633658697256746,0.9201670846930798,134.75135032776979,117.12464967223012,0.7849086790625083,3730590.0,0.5988060869728381,4.40667516388494,0.5900000000000034,2.6299999999999955,6.400000000000006,0.0146609651802076
132.176,129.23300000000003,126.63649999999998,125.58139999999996,129.26010433677268,127.2374868887342,60.724929211703326,2.0204367064018527,1.1747800370609103,0.8456566693409424,135.099804969099,118.17319503090094,0.8280928679916885,3577000.0,0.4577578976796198,4.231652484549475,1.2299999999999898,1.4000000000000057,11.819999999999993,0.01717225206142681
132.04199999999997,130.23400000000004,127.29049999999998,125.76819999999996,129.75085751573073,127.62359897105019,61.16733414735367,2.1254133017572343,1.3649066900001752,0.7605066117570591,135.42165114851406,119.15934885148589,0.8172675003675759,3428625.0,0.42606000947901856,4.065575574257033,0.2599999999999909,-0.6700000000000159,10.009999999999991,0.015175537938844779
131.48799999999997,131.08800000000002,127.78049999999996,125.93919999999997,130.01534097484907,127.9085175657872,58.49283143500321,2.105262049665214,1.512977761933183,0.5922842877320309,135.67548948701108,119.88551051298884,0.7336608557915134,3289500.0,0.5174342605259158,3.9474947435055388,-0.9799999999999898,-2.7700000000000102,8.539999999999992,0.009507872518445273
130.86999999999995,131.12000000000003,127.98499999999997,126.02239999999996,129.59451928641076,127.86196070906223,48.69029385667644,1.731237427089809,1.5566296949645082,0.17460773212530079,135.60071664388843,120.3692833561115,0.45371413926188303,3236450.0,0.9112453459809359,3.8078583219442064,-4.189999999999998,-3.0900000000000034,0.3200000000000074,0.016263356379635396
130.14999999999995,131.02300000000002,128.13399999999996,126.12419999999995,129.2507470885014,127.82477843431688,48.86649231510234,1.4248507578117682,1.5302739075339602,-0.10542314972219202,135.57639585080025,120.69160414919966,0.448000615963156,3135130.0,0.6186027373665526,3.7211979254001077,0.0799999999999983,-3.6000000000000085,-0.9700000000000131,0.007930276381909476
129.11999999999995,130.64800000000002,128.22599999999997,126.20259999999995,128.9106321518089,127.76664669844156,48.154162559403936,1.1430395410519196,1.452827034237552,-0.30978749318563237,135.5658294258116,120.88617057418834,0.41920793173822213,3066005.0,0.9705137467160034,3.6699147129057805,-0.3199999999999932,-5.1499999999999915,-3.749999999999986,0.011020151133501304
127.95399999999992,129.998,128.25549999999996,126.19919999999995,128.55822720537677,127.68170990596441,47.18201892647465,0.8757169120685404,1.3374050098037498,-0.46168809773520936,135.56446565869828,120.94653434130163,0.38811686383739136,2745500.0,1.08930977963941,3.654482829349272,-0.4200000000000017,-5.829999999999984,-6.5,0.012162375612067653
126.80199999999994,129.145,128.15449999999996,126.18279999999996,128.12003840454958,127.53565732033742,45.05946180320629,0.5837038333827564,1.186664774519551,-0.6029609411367947,135.54509260141197,120.76390739858795,0.33462083950257737,2706905.0,0.8877297134550345,3.695296300705897,-0.9100000000000108,-5.760000000000005,-8.530000000000015,0.020205234269350256
126.35999999999994,128.61499999999998,128.01299999999998,126.10879999999993,127.65080172692656,127.35301603734946,43.57475372066576,0.297212631183001,1.0087743458522411,-0.7115617146692401,135.5250332800129,120.50096671998705,0.30411428635238164,2686865.0,0.6362433542437004,3.756016640006334,-0.6400000000000006,-2.210000000000008,-5.300000000000011,0.01231310466138956
125.83399999999995,127.99199999999999,128.02149999999997,126.07619999999993,127.20144761509171,127.15871855310135,42.76851642447432,0.042244166426115726,0.815468309967016,-0.7732241435409003,135.51825469786976,120.52474530213017,0.280471675234669,2617265.0,0.62649368711231,3.748377348934666,-0.3399999999999892,-2.6299999999999955,-6.230000000000004,0.011464763890002345
125.31399999999994,127.21699999999998,128.22499999999997,126.03419999999993,126.77660952046222,126.95733199361236,42.05379483786732,-0.181132769396811,0.6161480940942506,-0.7972808634910616,135.0727748210662,121.37722517893376,0.22363285162678287,2468285.0,0.780987608805304,3.423887410533088,-0.29000000000000625,-2.6000000000000085,-7.75,0.014946962391513979
124.62399999999994,126.28899999999999,128.26149999999998,125.93519999999994,126.22174651731419,126.6767888829744,38.9815080284503,-0.4553895394074061,0.4018405673939193,-0.8572301068013255,134.99232840369694,121.53067159630302,0.12177761082102202,2457175.0,1.241588409453946,3.365414201848414,-1.269999999999996,-3.450000000000003,-9.279999999999987,0.025655597954047225
123.89599999999993,125.34899999999998,128.2185,125.81539999999991,125.58301628388124,126.33554526201334,36.49460484768648,-0.7528227405335741,0.1709079058084206,-0.9237306463419948,135.0944443715018,121.34255562849823,0.05289777899576574,2398360.0,0.9966393702363282,3.4379721857509966,-1.1000000000000085,-3.6400000000000006,-9.400000000000006,0.026869828786761706
122.97999999999993,124.66999999999999,127.89499999999998,125.66039999999992,124.79947531713027,125.9025419092716,33.216634953709665,-1.1033151603271847,-0.08393670741870048,-1.0193784529084842,135.54282191215324,120.24717808784673,0.01587523316719687,2331720.0,0.946554474808296,3.8239109560765976,-1.5799999999999983,-4.579999999999998,-6.790000000000006,0.014690015768943448
122.13799999999992,123.98599999999999,127.50449999999998,125.56579999999992,124.14109449911022,125.50383510117742,33.339067401182916,-1.3629509289936692,-0.33973955173369424,-1.023211377259975,135.79422249233988,119.21477750766007,0.07872534295002091,2323235.0,1.0618813852236213,4.14486124617001,0.030000000000001137,-4.210000000000008,-6.840000000000003,0.009293063391968176
121.64199999999991,123.478,127.06299999999999,125.50539999999994,123.80554149924711,125.2413287973865,39.1094432171066,-1.4359652670771794,-0.5589846948023913,-0.8769805722747881,135.5441086539442,118.58189134605578,0.19915489777230921,2342880.0,1.28013385235266,4.240554326972007,1.4399999999999977,-2.480000000000004,-5.0800000000000125,0.016480813381436463
121.1759999999999,122.89999999999998,126.449,125.41779999999993,123.34930434551679,124.91530444202454,36.46548310259879,-1.5661506856089602,-0.7604178929637051,-0.8057327926452551,134.86499168250486,118.03300831749512,0.16676535507633927,2319680.0,0.9725910470409712,4.207995841252485,-1.1199999999999903,-2.3299999999999983,-5.780000000000001,0.021764316451506085
121.34799999999991,122.62199999999999,125.88349999999998,125.33839999999995,123.28479598466805,124.76824485372642,44.064751519175076,-1.4835762906055407,-0.9050495724920722,-0.5785267181134686,133.62213624936666,118.1448637506333,0.30917180334960903,2260400.0,0.7530083171120155,3.8693181246833674,2.0900000000000034,0.8600000000000136,-2.779999999999987,0.015781338973399478
121.67199999999991,122.32599999999998,125.47049999999999,125.17939999999993,123.10405814087297,124.57133782752446,41.94495564844761,-1.4673875048837175,-1.0175171589704013,-0.4498703459133162,133.0880021496558,117.85299785034418,0.27942244491838875,2296175.0,1.4292900149161105,3.808751074828013,-0.8200000000000074,1.6200000000000045,-2.9599999999999937,0.016624355089673255
123.00799999999992,122.57299999999998,125.28249999999998,125.15219999999992,123.73420304227713,124.76605354400412,56.07154347290005,-1.0319417325388827,-1.0204020736840975,-0.01153965885478514,132.52517043292912,118.03982956707085,0.6323752073048925,2360310.0,1.4898890399989833,3.621335216464572,5.090000000000003,6.680000000000007,2.469999999999999,0.031682389937107036
123.90799999999993,122.77499999999998,124.99599999999998,125.10699999999991,124.15355642038834,124.89153105926307,54.01375694677581,-0.7380518341770994,-0.9639320257826979,0.22588019160559847,131.54294860221438,118.4490513977856,0.6118078122306346,2393905.0,0.964658163126774,3.2734743011070835,-0.7400000000000091,4.5,2.019999999999996,0.021587853866835285
126.56399999999992,123.86999999999998,125.07949999999998,125.18979999999992,125.68685543263629,125.57512135116951,67.36503177458984,0.11166876236477208,-0.7488118681532039,0.860480630517976,132.03447656358662,118.12452343641334,1.1499302993580391,2587620.0,2.0617787774093568,3.4774882817932635,7.660000000000011,13.280000000000001,10.950000000000003,0.05055174470623323
128.5979999999999,124.97299999999998,125.16099999999999,125.27539999999993,126.82733921223071,126.1325197696014,64.67244224626553,0.6947641726199123,-0.4600966599985806,1.154860832618493,132.4440705063196,117.87792949368038,1.0450311096886424,2651895.0,1.1265906078483499,3.6415352531597986,-1.0200000000000102,10.169999999999987,11.030000000000001,0.02028549962434273
130.8019999999999,126.237,125.45349999999999,125.46539999999993,127.79697933342598,126.65085163851981,64.7171111748842,1.1460809279751487,-0.1388611424038347,1.2849420703789833,133.48492895131469,117.4220710486853,0.9779037482952152,2642320.0,1.0436661721517455,4.015714475657446,0.030000000000001137,11.019999999999996,12.64,0.008337715015398373
132.2319999999999,127.61999999999998,125.80299999999997,125.69679999999995,128.80513635905274,127.22115892455538,66.56839257890063,1.5839378624788054,0.20569865857269332,1.3782392039061122,134.6978211898859,116.90817881011402,0.9804481066869898,2724295.0,1.3136976722418094,4.447410594942972,1.2199999999999989,7.1499999999999915,13.829999999999998,0.02009676218831402
133.9779999999999,128.94299999999998,126.21049999999998,125.96959999999994,129.78742307304464,127.81144344866239,67.82036165023338,1.9759461403665313,0.5597481549314609,1.4161979854350704,135.9967525514129,116.42424744858705,0.9587813339593192,2702805.0,0.9419103486933019,4.893126275706524,0.8400000000000034,8.730000000000004,13.230000000000004,0.015829573193283635
134.0659999999999,130.315,126.60749999999999,126.25379999999994,130.5216656771916,128.31133652653924,65.82922515816139,2.2103008180236827,0.8898586875499053,1.3204421304737775,137.05018140852914,116.16481859147083,0.8807690615508359,2667255.0,0.8546989320481169,5.22134070426451,-0.6299999999999955,0.4399999999999977,13.719999999999999,0.02080856123662294
134.75399999999988,131.676,127.14899999999997,126.57459999999993,131.44756326531598,128.920867154203,68.91782507215505,2.526672137350232,1.2172213775099707,1.3094507598402614,138.43822123089305,115.85977876910688,0.9159277158242523,2700140.0,1.1335338167650566,5.64461061544662,1.9799999999999898,3.4399999999999977,13.609999999999985,0.015380108393144826
135.1639999999999,132.983,127.65449999999996,126.89879999999994,132.0217843014212,129.38450662426203,64.59876313180747,2.6372573916676174,1.5012285803415,1.1360288113261174,139.42137464877845,115.88762535122144,0.8197748010675573,2759835.0,1.05201941420411,5.8834373243892895,-1.3599999999999852,2.0500000000000114,13.070000000000007,0.014203284509542738
135.5399999999999,133.886,128.22949999999997,127.26539999999994,132.66920210120256,129.89158020765004,66.35204452441111,2.7776047289058283,1.7565038100543657,1.0211009188514626,140.48242369192124,115.97657630807872,0.8264731014882184,2781000.0,0.7418194893923049,6.1264618459605655,1.049999999999983,1.8799999999999955,9.029999999999987,0.013212948689716005
135.60199999999992,134.79,128.78249999999997,127.61099999999993,133.1047094702483,130.30701871078708,63.97961639858044,2.7976762355294227,1.964738295149377,0.8329379403800456,141.29692667484377,116.26807332515617,0.7683902417001406,2828385.0,1.0166225602242975,6.257213337421984,-0.7299999999999898,0.3100000000000023,9.040000000000006,0.018671586715867168
135.95999999999992,135.01299999999998,129.44149999999996,127.95059999999994,133.60398493636396,130.75464695443247,65.52529795557398,2.8493256924507193,2.1416557746096454,0.7076699178410739,142.09168304215663,116.79131695784329,0.7730592900109624,2803135.0,0.9081974289500863,6.325091521078235,0.8499999999999943,1.789999999999992,2.2299999999999898,0.014668133480014669
135.04799999999994,134.90099999999998,129.93699999999995,128.15679999999992,133.35414110000028,130.84541384669674,52.94610210500673,2.5087168545121017,2.2150679905901365,0.2936488639219652,142.16263061768421,117.7113693823157,0.5835539721380447,2955635.0,1.8406535313054555,6.1128153088422135,-4.3700000000000045,-4.560000000000002,-1.1200000000000045,0.0416729807546598
134.51999999999992,134.84199999999996,130.53949999999995,128.34379999999993,133.22888862307715,130.97093874694144,54.160538175819475,2.2579410771583355,2.223642607903776,0.03429846925455937,142.00771603389455,119.07128396610536,0.5872193196434176,3001760.0,1.042588348169074,5.734108016947399,0.5600000000000023,-2.640000000000015,-0.5900000000000034,0.014938886373924992
133.89199999999994,134.71599999999995,131.16799999999995,128.51799999999994,133.20752114260375,131.127906247168,55.37863346770443,2.0796074501471935,2.1948355763524594,-0.1152281262052659,141.71138010317705,120.62461989682285,0.5911472403153182,2978615.0,0.6728294861873724,5.271690051588534,0.5500000000000114,-3.1399999999999864,-1.259999999999991,0.014050642422420953
133.44399999999993,134.52299999999997,131.73299999999995,128.67919999999995,133.2155948129724,131.28583911774814,55.76986239618701,1.9297493953647233,2.141818340154912,-0.21206894479018867,141.41823639360717,122.04776360639272,0.5788313231573752,2920540.0,0.6292329500708773,4.842618196803746,0.1699999999999875,-2.240000000000009,-1.9300000000000068,0.016058832357796687
132.42199999999994,134.19099999999997,132.25299999999993,128.78339999999994,132.91165714943818,131.28244362754458,50.14394066317849,1.6292081912432366,2.0392963103725767,-0.4100881191293402,140.5619905524127,123.94400944758715,0.43904193333654934,2949490.0,0.9612170239600745,4.154495276206362,-2.019999999999982,-5.109999999999985,-3.319999999999993,0.026516306004266913
132.3859999999999,133.71699999999996,132.69649999999996,128.86479999999995,132.74063297260153,131.32078113661535,51.6015687856457,1.4198473254358817,1.9154065133852378,-0.49555918794935616,139.83161955050824,125.56138044949166,0.43717694611465374,2982490.0,0.7919892438868193,3.5675597752542707,0.5600000000000023,-0.1799999999999784,-4.739999999999981,0.01874051593323216
131.78399999999993,133.15199999999996,133.06749999999994,128.89739999999995,132.24668943835513,131.18813068205125,45.76109938045749,1.0585549396843987,1.74403619864507,-0.6854812589606714,138.54015155112654,127.59484844887334,0.17680200658200998,2979520.0,1.0815500483299323,2.7363257755636026,-2.2700000000000102,-3.009999999999991,-5.650000000000006,0.027097969582336068
131.1699999999999,132.53099999999995,133.20849999999996,129.00659999999996,131.90412183245434,131.1016024833808,47.15160128222902,0.80251611962629,1.555732182841314,-0.753216063215024,138.19270816178818,128.22429183821174,0.18013976377985097,2934885.0,0.894038437621917,2.4921040808939106,0.4900000000000091,-3.069999999999993,-6.2099999999999795,0.016997385017689645
130.07999999999993,131.76199999999994,133.27599999999995,129.1554,131.27425693515366,130.85778007720444,41.93039833750961,0.4164741253400166,1.3278805713410544,-0.9114064460010378,137.91759627714788,128.63440372285203,-0.0888060565403793,2965815.0,0.9872159929058286,2.3207981385742147,-2.210000000000008,-5.449999999999989,-7.689999999999998,0.026836710742508464
129.40199999999993,130.91199999999995,132.96249999999995,129.2636,130.74744817589925,130.63498155296708,42.055464267460025,0.11246431072439123,1.0847973192177218,-0.9723330084933306,138.14874285972306,127.77625714027684,0.007109468426155741,2851410.0,1.0685941341301322,2.5931214298619016,0.03999999999999204,-3.390000000000015,-8.5,0.015017598748533563
128.36399999999992,130.37499999999994,132.63799999999998,129.33719999999997,130.11091768729938,130.3368347712658,39.23445707014428,-0.22591904044995204,0.822654047284187,-1.048573087734139,138.51532796430607,126.7606720356939,-0.012818072822288952,2874055.0,1.1970891301662634,2.9386639821528977,-1.2399999999999949,-5.190000000000012,-5.36999999999999,0.02653818813679815
127.96999999999994,129.87699999999992,132.35949999999997,129.3492,129.71846881233023,130.1311433067276,42.42108836934902,-0.41267614988342416,0.5755880078506648,-0.9882641577340889,138.63178339602214,126.0872166039778,0.11740408580360338,3025100.0,1.9102178440382136,3.1361416980112105,0.9500000000000028,-1.9699999999999989,-4.97999999999999,0.01583568516776427
127.27999999999993,129.22499999999994,131.97049999999996,129.31399999999996,129.23408899504867,129.86735491363666,40.06323536687187,-0.63326731938389,0.3338169424037538,-0.9670842617876438,138.6523784035649,125.288621596435,0.09588459458356433,2954630.0,0.7342712962367538,3.340939201782677,-0.9900000000000091,-3.450000000000017,-6.52000000000001,0.009875957967922889
127.07199999999993,128.57599999999994,131.54949999999997,129.2336,128.8549983804258,129.63792121633023,40.77935818747035,-0.7829240211932813,0.11046874968434678,-0.8933927708776281,138.4251482603475,124.67385173965243,0.15243277295293253,2921280.0,0.6431427319531164,3.4378241301740187,0.20000000000000284,-1.0400000000000063,-6.489999999999995,0.01490889011595804
126.42599999999993,127.91399999999994,131.05249999999995,129.06359999999998,128.2034601680526,129.2662233484539,35.82413642740197,-1.0627641833380324,-0.12417783692012907,-0.9385863464179033,138.4062388449714,123.6987611550285,0.06263744636522206,2952225.0,0.9818357340649849,3.6768694224855745,-2.1499999999999915,-3.2299999999999898,-6.6200000000000045,0.021585620285668412
125.73399999999992,127.04899999999995,130.38299999999998,128.84179999999998,127.42600475758297,128.81316976708695,32.88211388394538,-1.387165858142751,-0.37677544116465345,-1.0103904169780975,138.0479803652714,122.71801963472855,0.02817883051786265,2990195.0,1.2775421000971507,3.832490182635765,-1.4699999999999989,-3.4599999999999937,-8.650000000000006,0.025010150223304897
124.14799999999991,126.05899999999997,129.60549999999998,128.62699999999998,126.22661941026251,128.13293496952494,27.135433513571872,-1.9063162773413893,-0.6826836084000006,-1.2236326689413888,138.2574973994449,120.95350260055505,-0.07648537900854951,3070370.0,1.4678686933496614,4.325998699722665,-3.5200000000000102,-7.930000000000007,-9.900000000000006,0.03544261472874693
122.47799999999991,124.87899999999998,128.70499999999998,128.3722,124.99483180868367,127.39864349030087,25.23309024196465,-2.4038122892224862,-1.026909344564498,-1.3769029446579883,138.12638949412425,119.28361050587571,-0.056446583942795545,3146705.0,1.1407805943042006,4.710694747062196,-1.4099999999999966,-8.349999999999994,-11.800000000000011,0.024953476569108467
120.9319999999999,124.00199999999998,127.88199999999998,128.1092,124.07870383811695,126.77948471324154,28.3777905267155,-2.7007813892521426,-1.3616837535020268,-1.3390976357501159,137.65447686106225,118.1095231389377,0.0476070127507654,3505155.0,2.865607940305065,4.8862384305312165,0.8200000000000074,-7.72999999999999,-8.769999999999996,0.020245295698924703
119.97799999999991,123.20199999999997,127.05699999999997,127.8572,123.42813401686819,126.26618954929772,31.445144514772714,-2.8380559674605337,-1.656958196293728,-1.1810977711668056,136.61419645084294,117.49980354915702,0.1229542817776693,3505595.0,0.72872080203218,4.7785982254214545,0.8099999999999881,-4.77000000000001,-8.0,0.017939090529828883
119.51399999999992,122.62399999999998,126.49949999999997,127.6444,123.02842109119615,125.86350884194233,35.06839265620136,-2.8350881188493275,-1.892584180804848,-0.9425039380444795,136.1433943897168,116.85560561028313,0.20605754424035955,3299870.0,0.4017734031946713,4.82194719485845,0.980000000000004,-2.3200000000000074,-5.780000000000001,0.015559049904825041
119.66999999999992,121.90899999999999,125.89299999999996,127.507,122.62558707716597,125.45954522402067,34.233334053371884,-2.8339584583265918,-2.0808590363091968,-0.753099422017395,135.46651575963745,116.31948424036247,0.21363707243703425,3248590.0,0.6476656026152885,4.786757879818673,-0.4200000000000017,0.7800000000000011,-7.150000000000006,0.006560916867369872
120.10599999999991,121.292,125.25849999999996,127.3678,122.28318906529428,125.08476409631544,34.21244491157308,-2.8015752945742918,-2.2250022879622158,-0.576573006612076,134.51685249923153,116.00014750076838,0.2376153046450114,3250805.0,0.6301208469902071,4.629176249615709,-0.009999999999990905,2.180000000000007,-6.1699999999999875,0.015614617940199298
120.4139999999999,120.673,124.62449999999994,127.2386,122.02115997832593,124.75107786695874,34.98151414870568,-2.729918111639307,-2.3259854526976342,-0.40393265894167296,133.3240482066622,115.92495179333768,0.26754539983452236,3318775.0,0.9633373759896348,4.349774103331119,0.1799999999999926,1.539999999999992,-6.189999999999998,0.015259578702935721
120.9599999999999,120.46900000000001,124.19149999999995,127.15780000000001,122.10713536627578,124.59025728422105,42.96036915840968,-2.48312210664308,-2.3574127834867236,-0.1257093231563564,132.37778187885235,116.00521812114755,0.4015731424932402,3342145.0,0.9881378575735045,4.093140939426277,2.0,2.730000000000004,-2.0400000000000063,0.018518518518518486
121.7359999999999,120.625,123.83699999999995,127.13780000000001,122.50757607915644,124.5991271150195,49.997984466253484,-2.0915511955304424,-2.304240465895467,0.21268927036502472,131.25241934080807,116.4215806591918,0.5588638322310249,3370050.0,0.8665153336003917,3.7077096704039754,2.1299999999999955,3.8799999999999955,1.559999999999988,0.016518322508219087
122.96799999999989,121.31899999999999,123.68899999999994,127.1678,123.13256437467084,124.74511769909213,55.196493967442976,-1.6125534595244773,-2.1659030646212694,0.5533496050967921,130.7538875433397,116.62411245666017,0.7038956729549116,3359525.0,0.8965553165998169,3.5324437716699553,1.8599999999999994,6.159999999999997,6.939999999999998,0.013589318163861887
124.1659999999999,122.136,123.50749999999994,127.20100000000002,123.63370831702917,124.86696083249272,54.60484143745559,-1.2332526297816315,-1.9793729776533417,0.7461203478717102,130.08196841957815,116.93303158042173,0.7192192445107976,3362255.0,0.7966379706476755,3.287234209788993,-0.1799999999999926,5.989999999999995,8.170000000000002,0.01914708442123576
125.5619999999999,122.98799999999999,123.49499999999993,127.26340000000003,124.23775319133237,125.06644521527105,57.773248317869644,-0.8286921206693592,-1.7492368062565453,0.9205446855871862,130.03757288839964,116.95242711160023,0.8106576013243589,3354200.0,0.8248762745214955,3.2712864441999523,1.1700000000000017,6.980000000000004,8.519999999999996,0.017011602383192125
126.7379999999999,123.849,123.52549999999994,127.36920000000003,124.8873296234351,125.31781964376948,60.081318094276014,-0.4304901021834411,-1.4854874654419246,1.0549973632584835,130.15411818179493,116.89688181820493,0.8722118143380404,3354490.0,0.9100638249033385,3.314309090897504,0.9000000000000057,5.88000000000001,8.610000000000014,0.015413358243811223
128.07799999999992,124.90700000000001,123.76549999999993,127.55600000000004,125.89081737367584,125.76909226274952,66.53760063410326,0.12172504166943554,-1.1640449640196526,1.2857700056890882,131.13017371986172,116.40082628013813,1.0189978735502985,3426605.0,1.4249672781076312,3.682336859930933,2.9499999999999886,6.700000000000003,10.579999999999998,0.03645080283083473
129.6619999999999,126.31500000000001,124.11199999999994,127.83600000000004,127.21376854695649,126.41508542847178,71.68648870082014,0.7986830598827197,-0.7714993592391781,1.5701824191218978,132.70743506752382,115.51656493247607,1.1036925367053994,3413850.0,1.6179679833618934,4.297717533761928,3.0800000000000125,7.920000000000016,14.080000000000013,0.031600862517659305
131.5379999999999,127.852,124.57199999999993,128.14100000000005,128.53011184742473,127.10804206339981,73.51068290374567,1.4220697344386224,-0.33278554050361797,1.7548552749422404,134.5223037139589,114.62169628604096,1.0626963920855377,3466565.0,0.9299695808386689,4.975151856979505,1.2800000000000011,9.38000000000001,15.370000000000005,0.016793105988068064
133.43799999999987,129.5,125.08649999999993,128.44300000000004,129.8424023324363,127.8452241327776,75.24192810759706,1.9971781577010717,0.13320719913732001,1.8639709585637516,136.40787319409716,113.76512680590271,1.0288006938170207,3499120.0,0.7230103568897323,5.660686597048642,1.289999999999992,9.5,16.480000000000004,0.015686560630380895
135.35599999999985,131.047,125.75799999999995,128.78720000000004,131.10510966590763,128.60113345627556,76.51071251284213,2.5039761741294626,0.6073609941357485,1.896615179993714,138.40461156199572,113.11138843800418,0.9859799773141862,3490715.0,0.78221796967097,6.323305780997849,0.9900000000000091,9.590000000000003,15.470000000000013,0.014342629482071843
136.38999999999987,132.23399999999998,126.42949999999993,129.06020000000004,131.94740048653722,129.19216060766257,70.71570860167152,2.7552398488339804,1.036936765075395,1.7183030837585855,139.85320809426432,113.00579190573555,0.8780810759858945,3441660.0,0.8248926390172184,6.71185404713214,-1.4699999999999989,5.170000000000016,11.870000000000019,0.012886220530092394
136.69999999999987,133.18099999999998,127.24999999999993,129.33880000000005,132.5770311809161,129.69940797005793,68.65846056247553,2.8776231854391483,1.4050740491481455,1.4725491362910028,140.91487321565864,113.5851267843412,0.8216275724361466,3401625.0,1.0895380884136259,6.832436607829355,-0.5400000000000205,1.549999999999983,9.469999999999999,0.016392237577183107
136.34999999999985,133.944,128.03999999999994,129.47520000000006,132.7990263838521,130.0194518241277,61.456052647823924,2.779574538215968,1.67997414696171,1.099600391254258,141.3475452281786,114.73245477182127,0.7246845641875953,3390965.0,0.9957342526389981,6.6537726140893065,-2.019999999999982,-1.75,7.63000000000001,0.01760931204297855
135.73399999999987,134.58599999999998,128.78699999999995,129.62560000000005,132.98071463249022,130.3128257630812,61.31887884971287,2.6678888512095966,1.8775570878112873,0.7903317633983094,141.66005107579394,115.91394892420594,0.7017004348629039,3038905.0,0.988250702144358,6.436525537897011,-0.040000000000020464,-3.0800000000000125,6.4199999999999875,0.017689207344379794
134.4879999999999,134.92199999999997,129.38549999999995,129.57960000000006,132.80214315056864,130.42446829914925,54.273953389638194,2.377674836019878,1.9775806374530054,0.40009419856687267,141.6390080283159,117.13199197168399,0.5993388992921166,3070115.0,1.0354009540359237,6.126754014157917,-2.1599999999999966,-6.230000000000018,3.359999999999985,0.02556516461841909
133.56399999999988,134.97699999999998,129.94199999999995,129.55680000000004,132.67258266586578,130.53821138810116,54.63773097380553,2.1343712647342556,2.0089387629092554,0.1254325018250002,141.58656886277885,118.29743113722107,0.5866498375242752,3163190.0,1.007622052421764,5.822284431389475,0.14000000000001478,-4.6200000000000045,0.5500000000000114,0.028948166110942655
132.4059999999999,134.55299999999997,130.43399999999997,129.49920000000003,132.29987764034797,130.51686239638997,49.46173009800517,1.7830152329323141,1.9637540569138672,-0.18073882398155305,141.22635358946252,119.64164641053742,0.4914754460889966,3177315.0,0.7511058865740413,5.396176794731245,-1.710000000000008,-5.789999999999992,-4.240000000000009,0.027946257197696632
131.64799999999988,133.99899999999997,130.92549999999997,129.41680000000002,131.9814349264483,130.4956133299907,49.4027817473836,1.4858215871281573,1.8681675629567251,-0.3823459758285679,140.69180426517553,121.1591957348244,0.46439287671591545,3167540.0,0.5849649886031432,4.883152132587787,-0.020000000000010232,-3.7900000000000205,-5.5400000000000205,0.0108269983874683
130.80799999999988,133.271,131.38549999999998,129.3086,131.64275263007164,130.44260493517658,48.016163183241304,1.2001476870009355,1.7345635877655672,-0.5344159007646316,139.95234650265147,122.81865349734849,0.40629574140828445,3108945.0,0.6514106875483484,4.283423251325801,-0.44999999999998863,-4.199999999999989,-7.280000000000001,0.016720604099244998
129.60199999999986,132.045,131.546,129.13320000000002,130.74232914852215,130.0979675325709,37.86734396509445,0.6443616092716127,1.5165231920667763,-0.8721615827951636,139.5486480617345,123.54335193826549,0.14036904062275962,3115205.0,1.1003128205045896,4.001324030867232,-3.989999999999995,-6.029999999999987,-12.260000000000005,0.03529692344383494
128.48999999999984,131.027,131.63049999999998,128.93040000000002,130.07427851028797,129.82404401163973,39.956801290638325,0.2502344929962419,1.2632654522526694,-1.0130309592564275,139.3741360322522,123.88686396774777,0.16227105856893523,3112780.0,0.9225515455637726,3.8718180161260873,0.6099999999999994,-5.560000000000002,-10.180000000000007,0.020174050632911483
128.06399999999985,130.23499999999999,131.70799999999997,128.7892,129.77362027793598,129.69781852929606,45.52010935023739,0.07580174385745408,1.0257727105736263,-0.9499709667161722,139.2765443778855,124.13945562211445,0.26296631024033335,3070275.0,0.7041388800677464,3.7842721889425546,1.7199999999999989,-2.1299999999999955,-7.9199999999999875,0.03660630658757413
127.55799999999985,129.603,131.77349999999996,128.61860000000001,129.45460177363813,129.54983197157043,44.43737184450159,-0.09523020197900678,0.8015721280630996,-0.8968023300421064,139.1777076551129,124.36929234488701,0.2249199246061787,3032020.0,0.6310644388889255,3.7021038275565226,-0.4200000000000017,-2.529999999999987,-6.320000000000007,0.014565387627251253
126.93799999999987,128.873,131.72949999999997,128.4422,129.0277399623092,129.33725182552817,41.83485405282587,-0.3095118666431347,0.5793553291218527,-0.8888671957649874,139.24299312903153,124.21600687096843,0.16397121064175205,3032290.0,0.9142265416566357,3.7567465645159217,-1.019999999999996,-3.0999999999999943,-7.299999999999983,0.027391853489106513
127.07999999999988,128.341,131.63149999999996,128.2452,128.6388568911847,129.1270850236372,41.374349910268904,-0.488228135349857,0.3658386362275108,-0.8540667715773678,139.36103886076202,123.9019611392379,0.16805911112955835,2979955.0,0.6731980852059847,3.864769430380923,-0.18000000000000682,0.7099999999999937,-5.319999999999993,0.01114624505928851
127.91199999999989,128.201,131.58899999999997,128.21680000000003,128.93441736946397,129.23322687373815,53.74274505741323,-0.29880950672577455,0.2329090076368537,-0.5317185143626283,139.3322781171821,123.84572188281783,0.4335552730750661,2871975.0,0.9481976688515743,3.871639058591095,4.060000000000002,4.159999999999997,-1.4000000000000057,0.03224571078431368
128.7459999999999,128.405,131.47899999999996,128.2118,129.4506608510849,129.4596545127205,57.82573196118741,-0.00899366371004362,0.18452847336747424,-0.19352213707751786,139.1160855697731,123.84191443022681,0.5530961708226693,2714865.0,0.8771338538012019,3.818542784886525,1.7299999999999898,4.1699999999999875,2.039999999999992,0.020560888956081328
128.97399999999988,128.266,131.13249999999996,128.12680000000003,129.35671302784107,129.41375417844492,48.61086348159097,-0.05704115235914742,0.1362145482221499,-0.19325570058129732,138.58603305486986,123.67896694513007,0.346213870447511,2710325.0,1.1559499322037026,3.7267665274348496,-3.4499999999999886,1.1400000000000006,-1.3899999999999864,0.039816827072337746
129.44199999999987,128.19,130.73049999999995,128.04200000000003,129.30491102355782,129.38458720226382,49.06690685253285,-0.07967618019122824,0.09303640253947427,-0.1727125827307025,137.71435416514706,123.74664583485284,0.37753896633923273,2681335.0,0.72728696712645,3.4919270825734015,0.18000000000000682,2.3400000000000034,-0.7599999999999909,0.012556192838319564
130.00399999999985,128.54199999999997,130.29349999999994,128.00340000000003,129.30569394301045,129.37906222431835,49.83924776996073,-0.07336828256461558,0.059755465518656306,-0.13312374808327188,136.43344226357627,124.1535577364236,0.4199096703372689,2655840.0,0.8361196457617929,3.069971131788392,0.28999999999999204,2.8100000000000023,3.519999999999996,0.020957389219704647
130.07999999999987,128.99599999999998,130.01149999999996,127.98620000000003,129.55712564408577,129.4946872447392,54.056302397219426,0.06243839828317732,0.060292052071560506,0.0021463462116168147,135.44844500616318,124.57455499383673,0.5853880257154993,2633545.0,0.9086991108942509,2.7184725030819017,1.6299999999999955,0.37999999999999545,4.539999999999992,0.028944554757904542
130.52799999999988,129.63699999999997,129.93599999999998,128.08620000000002,130.32218323730334,129.8676733747585,61.69460205493517,0.45450986164505025,0.13913561398625846,0.3153742476587918,135.06945653532046,124.80254346467952,0.9474567933312815,2563535.0,0.8995391129826588,2.5667282676601215,3.5900000000000034,2.240000000000009,6.409999999999997,0.023043187393146466
131.89399999999986,130.43399999999997,130.01849999999996,128.19920000000002,131.14492427771822,130.29747534699862,63.75528206333426,0.8474489299582331,0.28079827718065337,0.5666506527775796,135.4558790561299,124.58112094387003,1.0196897201445512,2536575.0,1.1185555325586667,2.718689528064655,1.1399999999999864,6.829999999999984,7.969999999999985,0.014446819488464716
132.70599999999988,131.07399999999996,129.97349999999997,128.30460000000002,131.44262823499233,130.50358828425797,56.339708144089165,0.9390399500901481,0.4124466117625523,0.5265933383275958,135.29260246188394,124.654397538116,0.7920135513708217,2559255.0,1.350705576427515,2.659551230941948,-2.589999999999975,4.060000000000002,6.400000000000006,0.019537120529005064
133.56999999999988,131.78699999999995,130.06399999999996,128.4202,131.77914696807042,130.7351743372759,57.47096629390279,1.0439726302494137,0.5387518154599246,0.5052208147894891,135.56419781462793,124.56380218537201,0.8241701589819304,2511980.0,0.8890596262709098,2.7500989073136703,0.549999999999983,4.319999999999993,7.1299999999999955,0.011898525780139215
133.64599999999987,131.86299999999994,130.03199999999998,128.5144,131.70850897298266,130.77849475673696,51.442198197339664,0.9300142157844675,0.6170042955248332,0.31300992025963437,135.49502333877538,124.56897666122457,0.6178834429333352,2470970.0,0.9579638765343165,2.7315116693880235,-2.3100000000000023,0.37999999999999545,0.7599999999999909,0.027337800791958602
132.70799999999988,131.61799999999994,130.01149999999998,128.56,131.42104605406226,130.7089766266083,47.9701512715096,0.7120694270636818,0.6360173218326028,0.07605210523107897,135.474174345044,124.54882565495599,0.4843025605072376,2477840.0,1.0185887708649468,2.7313371725222644,-1.4799999999999898,-4.689999999999998,-2.4499999999999886,0.023952556993222532
131.69599999999988,131.79499999999993,130.0305,128.6408,131.29626973805267,130.70164502463732,49.866035484821644,0.5946247130851248,0.6277388000831072,-0.03311408699798246,135.49872265457572,124.56227734542426,0.5529879667130149,2520435.0,1.0731480875325092,2.734111327287801,0.7700000000000102,-5.059999999999974,1.7700000000000102,0.017839369114156744
130.4679999999999,131.58699999999993,129.88849999999996,128.64419999999998,130.62607439373687,130.42300465244196,42.00895582421894,0.20306974101549713,0.5428049882695852,-0.3397352472540881,135.5204171691371,124.25658283086284,0.238233010940064,2762610.0,2.486308237500045,2.815958584568854,-3.670000000000016,-6.140000000000015,-2.0800000000000125,0.03513470931148569
127.84999999999988,130.70999999999995,129.62599999999998,128.56259999999997,129.07437064085428,129.69093023374256,32.41664960610149,-0.6165595931247196,0.31093207199072426,-0.9274916651154439,136.37597896293167,122.8760210370683,-0.17303913463262852,2962840.0,2.5085053529721484,3.3749894814655965,-6.3999999999999915,-13.08999999999999,-8.769999999999996,0.06304961008793757
126.00799999999988,129.82699999999994,129.4115,128.5418,128.00292900379978,129.12937984605793,36.261565980933305,-1.1264508424582118,0.02345548910093703,-1.149906331559149,136.80033015097806,122.02266984902191,0.005909606067107261,3152135.0,2.1120922803115985,3.694415075489026,1.5699999999999932,-9.209999999999994,-8.829999999999998,0.05028253214314962
124.40999999999988,128.5589999999999,129.09799999999998,128.5862,127.05632454167673,128.5901665241277,35.89734256831545,-1.5338419826202596,-0.28800400524330233,-1.2458379773769572,137.17904844682914,121.01695155317083,0.05154333947571115,3310865.0,1.6118144352004689,4.040524223414441,-0.2600000000000051,-7.990000000000009,-12.680000000000007,0.027739023389413295
122.72599999999989,127.21099999999993,128.8225,128.66559999999998,126.30765922757261,128.11608011493306,36.79144528878384,-1.8084208875036722,-0.5920873816953763,-1.2163335058082958,137.43371100658806,120.21128899341194,0.11489156432668021,3413035.0,1.1593200772919117,4.305605503294224,0.3400000000000034,-8.420000000000016,-13.47999999999999,0.02348801047548903
122.3899999999999,126.42899999999993,128.75150000000002,128.79,126.14648088486913,127.90451862493802,44.340534468794765,-1.7580377401900762,-0.8252774533943164,-0.9327602867957598,137.45512056847406,120.04787943152598,0.2994225522280457,3512785.0,1.357099850972946,4.35181028423705,3.0700000000000074,-1.6799999999999926,-7.820000000000007,0.023950183618074404
123.4599999999999,125.65499999999994,128.721,128.9108,126.10702228719695,127.75529502309077,45.77183381016714,-1.6482727359963576,-0.9898765099147246,-0.658396226081633,137.46016906805156,119.98183093194845,0.33802807921696437,3571120.0,0.888460763009924,4.369584534025908,0.6299999999999955,5.349999999999994,-7.739999999999995,0.03058225434903494
123.9359999999999,124.97199999999995,128.4175,128.98399999999998,125.8582496276282,127.51342131767663,43.11829646845543,-1.6551716901352052,-1.1229355459588208,-0.5322361441763843,137.3005464931803,119.53445350681969,0.27893282428414523,3655405.0,1.2061317419000084,4.441523246590045,-1.4000000000000057,2.3799999999999955,-6.829999999999998,0.025303237207807902
124.41999999999989,124.41499999999996,128.0165,129.06119999999999,125.61390353107001,127.27316788673762,42.699379660847406,-1.6592643557410298,-1.2302013079152627,-0.4290630478257671,136.8881633727837,119.1448366272163,0.28885019400682826,3707760.0,0.924655317496278,4.435831686391784,-0.21999999999999886,2.4200000000000017,-5.570000000000007,0.023014404120061154
124.19999999999989,123.46299999999994,127.62899999999999,129.075,124.91791837244385,126.81515545068298,37.0900301637452,-1.897237078301245,-1.363608461992459,-0.533628616308786,136.98664051457402,118.27135948542598,0.15060636867724012,3728590.0,0.9519952582611657,4.67882025728694,-3.1799999999999926,-1.0999999999999943,-9.52000000000001,0.037162441159468165
123.93199999999987,123.16099999999994,127.374,129.1418,124.76439246899095,126.60069949137313,44.12485943636937,-1.8363070224347382,-1.458148174080915,-0.3781588483538232,136.84340842925207,117.90459157074794,0.31762324300374417,3794425.0,0.8609473108573763,4.734704214625995,2.8299999999999983,-1.3400000000000034,-3.019999999999996,0.03163331181407361
123.46999999999989,123.46499999999995,127.0875,129.1618,124.58217824299234,126.37694397349364,43.49556166555428,-1.7947657305457625,-1.5254716853738846,-0.26929404517187794,136.651528178544,117.52347182145603,0.3166306113636947,3868185.0,0.9554351717924556,4.782014089272053,-0.3400000000000034,-2.3100000000000023,3.039999999999992,0.011328693963424433
123.08599999999987,123.51099999999994,126.66900000000001,129.119,124.27261235945505,126.09494812360522,41.59768009242147,-1.822335764187784,-1.5848445011366645,-0.23749126305111945,136.2545764563212,117.08342354367885,0.28618917606687305,3899955.0,0.7765474217010196,4.792788228160541,-1.0100000000000051,-1.9200000000000017,0.45999999999999375,0.022436158929591256
123.21999999999989,123.81999999999996,126.1895,129.0864,124.37528738107736,126.00939641074558,47.39783317187309,-1.6341090297000562,-1.594697406849343,-0.03941162285071331,135.08907409093231,117.28992590906768,0.42980001136947105,3958620.0,0.878917400508258,4.4497870454662465,2.3700000000000045,0.6700000000000017,3.0900000000000034,0.02217064190811598
123.86199999999988,124.03099999999995,125.62100000000001,129.0446,124.36370470706545,125.88277445439405,46.06732167505804,-1.5190697473555304,-1.5795718749505805,0.06050212759505014,133.40866434818457,117.83333565181545,0.41518638060537627,4020500.0,1.0135306553911205,3.893832174092313,-0.6400000000000006,3.2099999999999937,2.1099999999999994,0.02003218020917132
124.11199999999988,124.02199999999996,125.22550000000001,128.99679999999998,124.48775013674769,125.82997634666116,48.19617590874357,-1.342226209936257,-1.5321027419477158,0.18987653201145882,132.2208826914602,118.23011730853985,0.4960330976554171,4335180.0,2.2491338306598574,3.4976913457301704,0.8700000000000045,1.25,-0.09000000000000341,0.017416313813214082
125.04999999999988,124.25999999999995,124.95750000000001,128.993,125.0696347310942,126.01071883950107,55.01062868683647,-0.9410841084261534,-1.4138990152434032,0.4728149068172498,130.9886487297183,118.92635127028171,0.7746160100212551,4385325.0,0.7379612685490813,3.0155743648590723,3.1000000000000085,4.690000000000012,2.3800000000000097,0.03297731347937946
126.0119999999999,124.54899999999994,124.76050000000001,128.9124,125.4250755416951,126.11214707361209,52.860742726868104,-0.6870715319333272,-1.268533518581388,0.5814619866480608,130.1731646857149,119.34783531428509,0.7419787805176047,4433830.0,0.7526675582961007,2.70633234285759,-0.8900000000000148,4.810000000000002,2.8900000000000006,0.01954780970325019
126.8599999999999,125.03999999999994,124.72749999999999,128.80620000000002,126.00275622758815,126.33939543852972,56.55851890830065,-0.33663921095538285,-1.0821546570561869,0.745515446100804,130.02265958210916,119.43234041789084,0.9204311438548276,4443470.0,0.6113915475968106,2.647579791054602,1.8000000000000114,4.240000000000009,4.910000000000011,0.017185322805387822
127.34599999999989,125.60399999999996,124.53349999999998,128.62539999999998,126.11463988488228,126.36832910974974,50.725872204390285,-0.2536892248791389,-0.9164615706207773,0.6627723457416383,129.19927014007578,119.86772985992417,0.7353845061004592,4426580.0,0.5347243244220143,2.3328850700377077,-2.450000000000003,2.430000000000007,5.640000000000001,0.020752781503984814
127.62999999999988,125.87099999999994,124.51599999999999,128.416,126.187772210285,126.3847491756942,50.40598535498147,-0.1969769654190685,-0.7725646495804355,0.575587684161367,129.1480379963902,119.8839620036098,0.7238755383285171,4200860.0,0.560432863746947,2.316018998195125,-0.14000000000000057,1.4200000000000017,2.6700000000000017,0.015404060352318531
127.62399999999988,126.33699999999995,124.90099999999998,128.21979999999996,126.50349956254885,126.52217516267982,54.08131970176873,-0.018675600139317794,-0.6217868396922119,0.6031112395528941,129.4259083968655,120.37609160313447,0.8689577453449667,3986700.0,0.7899014222289111,2.2624541984325783,1.6500000000000057,-0.030000000000001137,4.660000000000011,0.02464129756706162
128.0079999999999,127.00999999999995,125.26049999999998,128.0742,126.9337303990798,126.72793996544428,56.32080795154736,0.20579043362845084,-0.45627138502807935,0.6620618186565301,129.97962481293033,120.54137518706965,0.9279924943849598,3750155.0,0.5137654310288509,2.3595624064653546,1.0600000000000023,1.920000000000016,6.730000000000018,0.016937354988399052
128.16599999999988,127.51299999999995,125.66649999999997,127.95279999999998,127.40084879922138,126.96809256059656,57.724280801160575,0.43275623861882195,-0.2784658602986991,0.7112220989175211,130.5368563524679,120.79614364753202,0.9418054541141875,3574700.0,0.5112037373765631,2.435178176234022,0.6699999999999875,0.789999999999992,5.030000000000001,0.016388397322458993
126.79799999999989,127.07199999999996,125.55149999999996,127.67019999999998,126.24533359934117,126.44378940795978,37.961645353894234,-0.1984558086236916,-0.2624638499636976,0.06400804134000598,130.83580231913757,120.26719768086234,-0.03569039563617317,3653375.0,1.5137509836794745,2.6421511595686966,-10.079999999999998,-6.840000000000003,-4.409999999999997,0.04854449912419724
123.58999999999988,125.60999999999994,124.81599999999996,127.2016,123.83066689175021,125.26647167403684,28.29514485110082,-1.4358047822909157,-0.4971320364291412,-0.9386727458617745,133.2274217585401,116.40457824145983,-0.3480135944625337,3856745.0,2.290688132090662,4.205710879269956,-9.340000000000003,-16.040000000000006,-14.620000000000005,0.0670284938941655
119.74799999999986,123.68599999999995,123.97299999999998,126.7458,121.55364121609634,124.06377006855263,27.08634059477842,-2.5101288524599283,-0.8997313996352987,-1.6103974528246296,134.8135850395637,113.13241496043628,-0.18921557026046745,4111580.0,2.0112706064335364,5.420292519781821,-1.519999999999996,-19.210000000000008,-19.24000000000001,0.07612583692561678
114.87999999999985,121.44399999999996,122.9965,126.2058,119.0007733366969,122.64867598940059,24.115521408783174,-3.6479026527067617,-1.4493656502495913,-2.1985370024571704,136.6328283548026,109.36017164519741,-0.16134004442800456,4167725.0,1.3272948671037557,6.818164177401321,-4.070000000000007,-24.340000000000018,-22.42,0.0814596036585367
111.69599999999984,119.93099999999995,122.4855,125.8818,118.23911590028199,122.01173702722276,39.95546203983147,-3.7726211269433776,-1.9140167455883486,-1.858604381355029,136.64842974634823,108.32257025365176,0.2021979155769305,4495885.0,2.2223878057379136,7.081464873174117,9.090000000000003,-15.920000000000002,-15.13000000000001,0.11521262604121
108.63999999999984,117.71899999999994,121.6615,125.3694,116.14232883870014,120.72271946965071,32.39326324516951,-4.580390630952763,-2.4472915226612315,-2.133099108291532,137.8290567418207,105.49394325817931,-0.027336946215652202,4734130.0,1.756288906303798,8.083778370910355,-9.439999999999998,-15.280000000000001,-22.120000000000005,0.08909282095401977
108.23799999999986,115.91399999999994,120.8925,124.94460000000001,114.97273978659243,119.82029580523213,37.681312259192545,-4.847556018641555,-2.9273444218572964,-1.9202115967842586,137.99334895553443,103.79165104446557,0.13883372012351783,4820395.0,1.035620524873999,8.550424477767248,3.930000000000007,-2.009999999999991,-18.049999999999997,0.0562004790860513
107.95999999999985,113.85399999999996,120.09549999999999,124.58160000000002,113.84462597327051,118.91805167151124,36.96818301580632,-5.073425698242289,-3.356560677134295,-1.7168650211079943,138.08381340064992,102.10718659935006,0.15378910955737626,4837120.0,0.8332024014289494,8.994156700324975,-0.9000000000000057,-1.3900000000000006,-20.60000000000001,0.049981419546636895
108.46399999999986,111.67199999999995,119.34099999999998,124.20320000000001,112.86545274661351,118.07078858473263,36.83471974814694,-5.205335838120433,-3.7263157093315225,-1.4790201287889109,138.10020776578807,100.58179223421187,0.1838619160231452,4845310.0,0.6588432938243374,9.379603882894019,-0.1599999999999966,2.5200000000000102,-21.820000000000007,0.01795682917752133
107.30199999999984,109.49899999999995,118.50599999999997,123.80560000000001,112.15384463174989,117.34258202290057,37.980082681225326,-5.18873739115179,-4.018800045695576,-1.1699373454562139,137.676176212023,99.33582378797695,0.23224033294066918,4884880.0,0.8742691734495013,9.585088106011481,0.7599999999999909,-5.810000000000002,-21.730000000000004,0.03261271249076128
108.47999999999983,108.55999999999995,117.81599999999996,123.46160000000002,111.89940699609606,116.83572409527831,41.383862242788744,-4.936317099183185,-4.202303456393098,-0.734013642790087,137.09542882971454,98.5365711702854,0.3102640886143856,4976405.0,1.1866799426493624,9.639714414857254,2.260000000000005,5.890000000000001,-9.39,0.03502262443438918
108.59399999999982,108.41599999999994,117.01299999999996,123.1102,111.47026745823513,116.2634482363688,39.9322679102563,-4.79318077813447,-4.3204789207413725,-0.47270185739309767,136.3381070889664,97.68789291103352,0.29552506582196036,4638975.0,0.6470825990655263,9.662553544483218,-1.3900000000000006,0.5699999999999932,-1.4399999999999977,0.01750526991109886
109.32999999999984,108.64499999999994,116.16549999999998,122.8066,111.44714938773741,115.89726688552666,43.33546964984977,-4.450117497789918,-4.346406636151082,-0.10371086163883625,134.91982694073585,97.41117305926412,0.37081647837024795,4624545.0,0.6373816234894459,9.377163470367886,2.2099999999999937,3.6799999999999926,2.289999999999992,0.020212001437297882
110.14799999999983,109.30599999999993,115.37499999999997,122.42679999999999,111.46604948193165,115.57672859770987,43.723890863603614,-4.11067911577878,-4.299261132076621,0.18858201629784155,133.49393871064223,97.2560612893577,0.3949993688712827,4609580.0,0.6590405199606038,9.059469355321093,0.25,4.089999999999989,6.609999999999999,0.03262525768575783
111.19199999999982,109.24699999999993,114.58899999999998,122.05019999999999,111.772811100096,115.4199338867684,46.698549626715874,-3.647122786672867,-4.16883346299587,0.5217106763230035,131.57259785204516,97.6054021479548,0.46676204860020176,4577515.0,0.4533901035824022,8.49179892602257,1.8900000000000006,5.219999999999999,-0.5900000000000034,0.018949409483518472
111.70599999999982,110.09299999999993,113.90599999999999,121.73479999999998,111.97237862315816,115.24586470997075,46.156383538542286,-3.27348608681298,-3.989763987759292,0.716277900946312,129.95459296013152,97.85740703986846,0.47395410295230184,4563835.0,0.4586931823784164,8.024296480065784,-0.39000000000000057,2.569999999999993,8.459999999999994,0.015300256478287822
112.7119999999998,110.65299999999995,113.28349999999998,121.43719999999998,112.30585883497999,115.16394880552846,47.94212764449165,-2.858089970548818,-3.7634291843171974,0.9053392137683796,128.24483319594208,98.32216680405787,0.5286237860217006,4541540.0,0.42020988475274906,7.480666597971086,1.0700000000000074,5.030000000000001,5.599999999999994,0.016208165410898846
113.0339999999998,111.18199999999995,112.51799999999996,121.10959999999997,112.40188055267538,114.99847111623006,46.08092991557136,-2.596590563554983,-3.5300614601647546,0.9334708966097716,125.81398225028954,99.22201774971037,0.5154934021512805,4500270.0,0.5163467969699596,6.6479911251448005,-1.2099999999999937,1.6100000000000136,5.290000000000006,0.01806428761179497
112.7859999999998,111.46699999999994,111.56949999999995,120.69739999999997,112.08312969841762,114.65265844095376,42.282464600983744,-2.5695287425363773,-3.337954916639079,0.7684261741027019,122.42375718324497,100.71524281675492,0.44290258747907313,4673100.0,1.1519762042327364,5.427128591622542,-2.6000000000000085,-1.2399999999999949,2.8499999999999943,0.031360464062358324
112.42999999999981,111.81099999999995,110.65499999999994,120.2404,112.02110974481491,114.43246151940163,44.82560095363023,-2.411351774586919,-3.152634288228647,0.7412825136417283,117.49286662637064,103.81713337362925,0.5749502773311693,4811915.0,0.9567292855339299,3.418933313185266,1.3500000000000085,-1.779999999999987,3.440000000000012,0.03608524355300861
111.9879999999998,111.84699999999994,110.20349999999996,119.74419999999998,111.84247747638184,114.16783474018669,43.56982419027197,-2.3253572638050173,-2.9871788833439212,0.661821619538904,115.57866241615227,104.82833758384766,0.5610679221549902,4856150.0,1.3210053231469374,2.687581208076178,-0.8200000000000074,-2.2099999999999937,0.35999999999999943,0.03725419447952368
110.8639999999998,111.78799999999994,110.10199999999995,119.25299999999999,111.33132709540003,113.74947661128397,40.11607024832581,-2.418149515884096,-2.873373009851956,0.4552234939678601,115.52362189755341,104.68037810244648,0.3541026993496322,4675735.0,1.1177494019656802,2.710810948776732,-2.3400000000000034,-5.6200000000000045,-0.5900000000000034,0.02054920751935131
110.02199999999979,111.52799999999995,110.08649999999993,118.75479999999999,110.92958446533848,113.3769227882259,40.54983818713552,-2.4473383228875463,-2.788166072459074,0.34082774957152795,115.52204698259898,104.65095301740088,0.3742996790962767,4487510.0,1.0038974843510098,2.7177734912996523,0.20000000000000284,-4.210000000000008,-2.5999999999999943,0.02152317880794705
109.5499999999998,111.16799999999996,110.23699999999992,118.2878,110.47426377836332,112.97640998909806,39.39736640886519,-2.5021462107348356,-2.7309621001142266,0.228815889379391,115.24641952725626,105.22758047274358,0.27372627829780105,4411595.0,0.9097616621652713,2.504709763628041,-0.75,-2.3599999999999994,-3.5999999999999943,0.021116976938038354
109.15599999999979,110.79299999999996,110.01999999999991,117.8852,110.3566847355382,112.73445369360931,43.41538729241371,-2.3777689580712007,-2.6603234717056212,0.2825545136344205,114.71613458070165,105.32386541929817,0.46699413159134867,4218785.0,1.4543049716920866,2.3480672903508877,1.7399999999999949,-1.970000000000013,-3.75,0.03199343724364238
109.20799999999979,110.59799999999996,110.3454999999999,117.4954,110.4741178531477,112.61486453111974,46.51027977532565,-2.1407466779721034,-2.5564081129589176,0.4156614349868142,114.3477817242245,106.3432182757753,0.5967573066274031,4007055.0,1.0181791864598815,2.001140862112425,1.4100000000000108,0.2600000000000051,-1.9499999999999886,0.014668826493880576
110.3159999999998,110.58999999999996,110.6214999999999,117.23780000000002,111.02579202958651,112.72191160288864,52.36116107839327,-1.6961195733021839,-2.384350405027571,0.6882308317253871,114.84300340519377,106.39999659480603,0.9072601239370778,3956630.0,1.0068164068917236,2.1107517025970237,2.9399999999999977,5.540000000000006,-0.0799999999999983,0.02814308258811159
111.90199999999979,110.96199999999996,111.07199999999992,117.16000000000003,111.89105479426551,113.01288111378578,56.84003803444541,-1.1218263195203235,-2.1318455879261213,1.0100192684057978,115.8154148037089,106.32858519629093,1.087973035337171,3960755.0,1.0383878831182438,2.3717074018545263,2.5900000000000034,7.930000000000007,3.719999999999999,0.03257608229747104
113.42599999999979,111.48799999999997,111.47749999999992,117.02960000000003,112.46012328745543,113.2037788090609,54.578417757111055,-0.7436555216055183,-1.8542075746620008,1.1105520530564825,116.30908721333343,106.64591278666641,0.9255847838833383,3995065.0,0.9708227525709845,2.4157936066667287,-1.0600000000000023,7.6200000000000045,5.260000000000005,0.013842027857081135
114.65599999999979,111.90599999999995,111.85849999999994,116.90980000000002,112.98318124323151,113.40053593431566,55.068823673025726,-0.4173546910841708,-1.5668369979464347,1.149482306862264,116.80911319434615,106.90788680565372,0.9041418550503929,3943720.0,0.8225228971630846,2.4753065971732453,0.269999999999996,6.150000000000006,4.179999999999993,0.024684964612463313
115.53199999999978,112.36999999999993,112.10849999999994,116.77600000000002,113.3703841288882,113.55605179103301,54.22812292513321,-0.1856676621448372,-1.2906031307861152,1.104935468641278,117.26035122068149,106.95664877931839,0.8291535270259023,3818750.0,0.8919148936170213,2.5759256103407613,-0.35999999999999943,4.3799999999999955,4.640000000000001,0.015930735930735837
115.50999999999979,112.91299999999994,112.35049999999993,116.54980000000002,113.45955580136695,113.58523313984539,50.64327067633163,-0.12567733847846796,-1.0576179723245858,0.9319406338461178,117.36919893498697,107.33180106501288,0.6593540497965941,3811860.0,0.7513392412103278,2.509349467493679,-1.5499999999999972,-0.10999999999999943,5.430000000000007,0.01702501096972354
114.6959999999998,113.29899999999994,112.41349999999991,116.2836,113.32423952423358,113.51077142578276,47.6452160487697,-0.18653190154921617,-0.8834007581695118,0.6968688566202956,117.41046017595202,107.4165398240478,0.5166601287720248,3781305.0,0.6179083676138264,2.4984800879761977,-1.3700000000000045,-4.070000000000007,3.8599999999999994,0.016788061822703735
113.85399999999979,113.63999999999992,112.40399999999991,116.02140000000001,113.02512575127456,113.3529365053544,45.125315452890554,-0.32781075407986293,-0.772282757351582,0.4444720032717191,117.40805595492937,107.39994404507046,0.3976829986292238,3789335.0,0.8440795020762218,2.502027977464724,-1.2000000000000028,-4.210000000000008,3.4099999999999966,0.018225893338121756
112.83999999999978,113.7479999999999,112.2704999999999,115.7518,112.68126025107847,113.16308935680964,43.89605186399008,-0.48182910573117965,-0.7141920270275015,0.23236292129632186,117.29715485189425,107.24384514810555,0.3527350650063083,3838110.0,0.7948964464280597,2.5133274259470424,-0.5899999999999892,-5.069999999999993,1.0800000000000125,0.025182778229081975
111.7759999999998,113.65399999999993,112.12599999999989,115.5336,112.29645098168179,112.94211977482374,42.60383337325677,-0.6456687931419651,-0.7004873802503943,0.05481858710842913,117.21814453841202,107.03385546158776,0.3089213704245421,3833105.0,0.5200222795879581,2.546072269206147,-0.6099999999999994,-5.319999999999993,-0.9399999999999977,0.011708113995280376
111.23199999999979,113.37099999999994,111.98049999999989,115.2798,112.1323815998846,112.81529608779975,45.57387186680785,-0.6829144879151698,-0.6969728017833494,0.014058313868179573,116.99992018564639,106.9610798143534,0.4252403691818814,3861440.0,0.640978495069197,2.5097100928231613,1.0499999999999972,-2.719999999999999,-2.8299999999999983,0.01852018340375787
110.80599999999978,112.75099999999993,111.8564999999999,115.01719999999999,111.87355366144081,112.64008897018496,43.762244928753105,-0.7665353087441673,-0.710885303175513,-0.05565000556865429,116.89844912708159,106.8145508729182,0.36052021107817245,3858285.0,0.5859079876162595,2.5209745635408254,-0.7800000000000011,-2.1299999999999955,-6.200000000000003,0.023811679492983337
110.50599999999979,112.17999999999992,111.8339999999999,114.7634,111.56685309814222,112.43563793535644,42.43473056688266,-0.8687848372142355,-0.7424652099832575,-0.126319627230978,116.90691789802172,106.76108210197809,0.3074086709779128,3760175.0,0.9098246757132314,2.5364589490108123,-0.5700000000000074,-1.5,-5.710000000000008,0.015107389879868918
110.06199999999978,111.45099999999994,111.67849999999991,114.436,111.1057987753511,112.1492943845893,39.47125282085429,-1.0434956092382066,-0.8026712898342473,-0.24082431940395932,116.94763379978747,106.40936620021236,0.2050274183467069,3806805.0,1.4543166776338687,2.634566899893662,-1.3100000000000023,-2.220000000000013,-7.290000000000006,0.018881827392465796
110.29399999999978,111.03499999999993,111.70249999999992,114.1768,111.1418297329894,112.0893466523975,47.77628204961199,-0.9475169194081161,-0.831640415749021,-0.11587650365909508,116.96086428940163,106.4441357105982,0.4655311062481412,3693625.0,1.1239365122339164,2.6291821447007844,2.7700000000000102,1.1599999999999966,-4.159999999999997,0.01895096102029818
110.61199999999977,110.92199999999991,111.91749999999993,113.9298,111.40000977406795,112.14346912259028,51.59759862936406,-0.743459348522336,-0.814004202303684,0.070544853781348,116.98599040642667,106.8490095935732,0.5890304536095906,3596270.0,0.911833649864999,2.534245203213446,1.4799999999999898,1.5899999999999892,-1.1300000000000097,0.03297287714944158
110.67599999999977,110.74099999999991,112.01999999999994,113.57979999999999,111.30308519344212,112.04173066906507,46.51996417685608,-0.7386454756229739,-0.798932456967542,0.060286981344568114,116.90529630626862,107.13470369373125,0.37206507838675257,3537715.0,0.9423879538063411,2.442648153134228,-2.049999999999997,0.3199999999999932,-1.8100000000000023,0.03394420872077282
110.90599999999976,110.70599999999993,112.17299999999996,113.2528,111.26107208675872,111.96678765654174,47.2292630528762,-0.7057155697830382,-0.7802890795306412,0.07457350974760302,116.7214067540203,107.62459324597963,0.37435160685775726,3471915.0,0.7769487444249067,2.2742033770103305,0.2600000000000051,1.1500000000000057,-0.3499999999999943,0.014860848419346045
112.00199999999977,111.03199999999993,112.38999999999996,112.95019999999998,111.69013791956506,112.1210996819831,54.73833679356004,-0.4309617624180362,-0.7104236161081202,0.27946185369008403,116.86112961118589,107.91887038881403,0.6856354148006613,3317940.0,0.9210232855325895,2.2355648055930266,3.019999999999996,5.480000000000004,3.259999999999991,0.01762384918895226
112.59999999999977,111.44699999999992,112.55049999999997,112.70219999999999,112.09627054732428,112.28472192776212,55.372399943899644,-0.18845138043784004,-0.6060291689740642,0.4175777885362242,117.05806020481347,108.04293979518647,0.6973905970351486,3296325.0,1.106565645074439,2.2537801024066684,0.28000000000000114,2.989999999999995,4.1499999999999915,0.0183678824455523
113.61199999999977,112.1119999999999,112.74149999999997,112.52799999999999,112.98607507850517,112.69918697015011,62.53793636495395,0.2868881083550576,-0.42744571350823984,0.7143338218632975,117.78106059592683,107.70193940407312,1.009816272886284,3344755.0,1.4805867694345325,2.5197802979632655,3.549999999999997,5.060000000000002,6.6499999999999915,0.029860875466576148
115.44199999999975,113.0589999999999,112.90499999999997,112.3616,114.05283275873514,113.23406200939824,65.92389480673104,0.8187707493368919,-0.17820242093921349,0.9969731702761053,118.6094842010488,107.20051579895114,1.114867160006355,3333765.0,1.167748776533439,2.852242100524546,2.0400000000000063,9.150000000000006,9.469999999999999,0.028435623749166083
117.35399999999977,114.12999999999991,113.15499999999997,112.1874,115.05855079585281,113.77894630499837,66.97950323096374,1.2796044908544388,0.11335896141951698,1.1662455294349219,119.68654958643184,106.62345041356811,1.0691604956536596,3305770.0,1.0038810927559993,3.265774793215962,0.6700000000000017,9.560000000000002,10.710000000000008,0.019072891616220344
119.59999999999977,115.8009999999999,113.62599999999998,112.09359999999998,116.63108144264469,114.63087620833183,73.23081045878655,2.0002052343128582,0.4907282159981853,1.5094770183146728,121.97546082091641,105.27653917908354,1.1978893757310238,3539340.0,2.236349149841496,4.174730410458236,4.689999999999998,11.230000000000004,16.710000000000008,0.026979565772669186
121.36999999999978,116.98499999999993,114.00999999999996,112.15939999999999,117.6386073745455,115.26414463734429,67.1048746000502,2.3744627372012133,0.8674751202387909,1.5069876169624223,123.32005263143178,104.69994736856815,0.9924784189211274,3626165.0,1.4181649207909734,4.655026315715842,-2.0999999999999943,8.850000000000009,11.840000000000003,0.026059425231368793
122.72199999999978,118.16699999999994,114.54449999999997,112.4412,118.7157447015385,115.95865244198545,69.0437302287034,2.7570922595530476,1.2453985481016423,1.5116937114514053,124.943200832317,104.14579916768294,0.9854212157265494,3711140.0,1.2296760564139322,5.1993504161584365,1.4599999999999937,6.760000000000005,11.820000000000007,0.01861360718870341
123.49399999999977,119.46799999999993,115.10449999999999,112.7362,119.4948609013018,116.5380115203569,66.5552923706985,2.9568493809449024,1.5876887146702943,1.369160666274608,126.20250067579738,104.0064993242026,0.8908586894808725,3821965.0,1.1912720289170622,5.549000337898682,-0.8599999999999994,3.8599999999999994,13.010000000000005,0.02900306996283732
124.43999999999978,120.89699999999993,115.80149999999999,113.14339999999999,120.39103614725538,117.18852918551565,68.72876670164594,3.2025069617397293,1.9106523640841813,1.291854597655548,127.60485930995915,103.99814069004083,0.9032114820044792,4223510.0,2.658783807780732,5.901679654979533,1.539999999999992,4.72999999999999,14.289999999999992,0.017235876157037956
123.78199999999978,121.69099999999995,116.36149999999998,113.30219999999997,120.63703058613916,117.54419369029226,59.69492061986301,3.092836895846901,2.1470892704367253,0.9457476254101755,128.22326087265333,104.49973912734663,0.7372539819520482,4324965.0,1.1745759792275776,5.930880436326608,-3.3299999999999983,-3.2900000000000063,7.939999999999998,0.05156160341011563
123.28199999999978,122.32599999999995,116.88649999999998,113.62359999999998,120.64364126519467,117.7764756391595,56.54609575777453,2.867165626035174,2.291104541556415,0.5760610844787588,128.53495788076742,105.23804211923255,0.662832713086571,4424345.0,0.8997716046104,5.824228940383718,-1.309999999999988,-2.5,6.3500000000000085,0.020467351673848184
122.3179999999998,122.51999999999995,117.31599999999999,113.84919999999998,120.51692722439549,117.92784781403657,54.51315698235821,2.58907941035892,2.350699515316916,0.2383798950420042,128.72961362584215,105.90238637415783,0.609693567790422,4440540.0,0.6303287438014296,5.706806812921024,-0.8600000000000136,-4.820000000000007,1.9399999999999977,0.015940577532966207
121.78799999999981,122.64099999999993,117.85,114.11899999999997,120.61124611295003,118.16504427225608,57.04641056025742,2.446201840693945,2.3697999803923215,0.07640186030162344,128.92297972543977,106.77702027456023,0.6481082816608212,4462775.0,0.6061923354863286,5.53648986271996,1.3100000000000023,-2.6500000000000057,1.2099999999999937,0.014034508379427086
120.88399999999982,122.66199999999995,118.396,114.38539999999999,120.64028517249618,118.3602261780149,56.19735507444633,2.28005899448128,2.351851783210113,-0.07179278872883321,128.905744811364,107.886255188636,0.6143700462355943,4501115.0,0.9304139085537695,5.25487240568205,-0.3299999999999983,-4.519999999999996,0.20999999999999375,0.010347682119205299
120.40799999999982,122.09499999999994,118.94800000000001,114.6128,120.48177976134292,118.45280201668047,53.126651478093166,2.0289777446624555,2.2872769755005815,-0.258299230838126,128.4464537689026,109.44954623109743,0.5348477771280703,4398860.0,0.7936601755909486,4.749226884451319,-1.1899999999999977,-2.3799999999999955,-5.670000000000002,0.012958782710475809
120.5099999999998,121.89599999999993,119.4405,114.82659999999998,120.59073672113632,118.65555742285228,56.52346535715066,1.9351792982840408,2.2168574400572734,-0.2816781417732326,128.3106397395975,110.57036026040251,0.5986173866117348,4375305.0,0.8411527882056222,4.435069869798777,1.5799999999999983,0.5099999999999909,-1.990000000000009,0.029375361003383137
121.1219999999998,121.71999999999994,119.9435,115.10199999999999,120.94293107173074,118.96847909523359,59.873087491844586,1.97445197649715,2.168376347345249,-0.19392437084809888,128.3854885690517,111.5015114309483,0.6739222918854215,4384370.0,0.7892810141479848,4.2209942845259265,1.6899999999999977,3.0600000000000023,-1.7600000000000051,0.021077473958333363
121.5259999999998,121.65699999999995,120.5625,115.33859999999999,121.28248013761832,119.27822138447554,60.398039171670824,2.0042587531427785,2.1355528285047547,-0.13129407536197624,127.97601704658399,113.14898295341601,0.674512312020128,4289535.0,0.3350479714001634,3.706758523291994,0.27000000000001023,2.0200000000000102,-0.6299999999999955,0.013885505481120533
121.28799999999978,121.08599999999994,120.9915,115.49939999999998,121.02517550106165,119.30279757821809,50.98096817103934,1.7223779228435632,2.0529178473725165,-0.3305399245289533,127.01078658563316,114.97221341436685,0.38524387563657714,4339280.0,0.8509245773492377,3.0096432928165155,-3.5400000000000063,-1.1899999999999977,-5.709999999999994,0.038541927932447234
122.15599999999979,121.28199999999995,121.48649999999998,115.70919999999998,121.47514850089833,119.64703479464637,59.34919280848254,1.8281137062519548,2.007957019148404,-0.17984331289644917,126.71769212034813,116.25530787965182,0.7354625813127343,4374155.0,0.8580857331301703,2.615596060174221,4.340000000000003,4.340000000000003,1.960000000000008,0.047277127874142795
122.2959999999998,121.40299999999995,121.86449999999998,115.8856,121.53897180845243,119.8131803654133,54.58585994298373,1.7257914430391281,1.9515239039265488,-0.22573246088742072,125.93675969211262,117.79224030788734,0.5031309398132703,4304060.0,0.5217631724464807,2.0361298460563337,-2.0600000000000023,0.7000000000000028,1.2099999999999937,0.019853966691279035
122.0659999999998,121.59399999999997,122.05699999999997,116.03739999999998,121.56836076099822,119.95516700501231,54.22185445835833,1.613193755985904,1.8838578743384198,-0.2706641183525158,125.69890115187359,118.41509884812636,0.45510586554062,4191625.0,0.6449765902245549,1.820950575936756,-0.1599999999999966,-1.1499999999999915,1.9100000000000108,0.020208658506530912
122.0439999999998,121.78499999999994,122.21299999999997,116.23959999999997,121.79476679776772,120.18367315278918,56.76404900711499,1.6110936449785385,1.8293050284664436,-0.21821138348790514,125.74088945405312,118.68511054594681,0.6172088880293443,4107770.0,0.5394411079490818,1.763944727026692,1.3100000000000023,-0.10999999999999943,1.9100000000000108,0.019993498049414773
122.6419999999998,121.96499999999995,122.31349999999995,116.48499999999999,121.91864882888038,120.36266032665665,55.64627817103888,1.5559885022237268,1.7746417232179001,-0.2186532209941734,125.76440292532932,118.86259707467057,0.5415108750085604,4095565.0,0.7506900757282573,1.7254514626646007,-0.44000000000001194,2.989999999999995,1.7999999999999972,0.014926590538336039
